Depth in the Phantom [mm];MS;BT;LW;SN;FD;LP;IM;PFD
1;1.110542;1.062181;0.2892639;0.7668725;0.7475997;1.358007;0.6965848;0.5930482
5;0.9578187;0.9344011;0.2902834;0.7105331;0.6731989;1.138022;0.6255771;0.5265149
9;0.8283723;0.8291575;0.2748998;0.6446396;0.6028997;0.9625518;0.5559882;0.4641604
13;0.721506;0.7389865;0.2579814;0.5868613;0.5410745;0.8139842;0.4959767;0.4108248
17;0.6323179;0.660382;0.2409865;0.5342217;0.486215;0.690345;0.4435591;0.3648049
21;0.5572774;0.5920895;0.2254362;0.4872223;0.4384577;0.5871729;0.3983815;0.3252383
25;0.4939071;0.5317898;0.2105351;0.4438184;0.3960148;0.5015139;0.3593352;0.2911463
29;0.4386015;0.4782082;0.1963692;0.403789;0.3581182;0.4303282;0.3239323;0.2606325
33;0.391199;0.4312826;0.183636;0.3680747;0.3250454;0.3707995;0.2930255;0.2341288
37;0.3505577;0.3889094;0.1712705;0.3348866;0.2949544;0.3209803;0.2660945;0.2111734
41;0.3141882;0.351371;0.159947;0.3051201;0.2683248;0.2786662;0.2413297;0.1903678
45;0.282667;0.3182456;0.1496325;0.2786293;0.2448638;0.2428145;0.2196412;0.1722718
49;0.2553085;0.2878909;0.1393967;0.2538653;0.2230776;0.2124011;0.2006543;0.156543
53;0.2302483;0.2610061;0.1299626;0.2317978;0.2037548;0.1860186;0.1829193;0.142042
57;0.2081703;0.2366709;0.1208481;0.2115677;0.1860842;0.1634259;0.1671758;0.1292519
61;0.1886366;0.2142295;0.1117996;0.1926114;0.1695372;0.1440863;0.1531153;0.1179001
65;0.170288;0.1939971;0.1032405;0.1753936;0.1545251;0.1270804;0.1396012;0.1071009
69;0.1538317;0.1750389;0.09470962;0.1590217;0.1402428;0.112436;0.1272833;0.09731274
73;0.1390745;0.1575235;0.08655266;0.143794;0.1269639;0.09983096;0.1160061;0.08840334
77;0.1251319;0.141624;0.07908863;0.129986;0.1149414;0.08861133;0.1050123;0.07979424
81;0.1127277;0.1266066;0.07198337;0.1168799;0.1035289;0.07885575;0.09496649;0.07197458
85;0.1018632;0.1132734;0.0659491;0.1053802;0.09354213;0.07033748;0.08591178;0.06497078
89;0.09197751;0.1015957;0.06102685;0.09544936;0.08493874;0.06257457;0.07743529;0.05846478
93;0.08366889;0.09149232;0.05712629;0.0869471;0.07757879;0.05566346;0.07016358;0.05291397
97;0.07689592;0.0834464;0.0544585;0.08031241;0.07184418;0.04947079;0.06418662;0.04837094
101;0.07106805;0.07715271;0.05258961;0.07510275;0.06732108;0.04369136;0.05913663;0.04453846
105;0.06641269;0.07244166;0.0512216;0.0710782;0.06379033;0.03847499;0.05531138;0.04162263
109;0.06262041;0.06907004;0.05009518;0.06799512;0.06104019;0.03380787;0.05249511;0.03944802
113;0.05895125;0.06613432;0.04855024;0.06495143;0.05827327;0.02956538;0.05003849;0.03751833
117;0.05544341;0.06336175;0.04652041;0.06181613;0.05539345;0.02594871;0.04790123;0.03580902
121;0.05180794;0.0602392;0.04377122;0.05819104;0.05206173;0.02302318;0.04574129;0.03407173
125;0.04751838;0.05616179;0.0400051;0.05357469;0.04784491;0.02072763;0.04298967;0.03189003
129;0.04278159;0.0511817;0.03540955;0.04815289;0.04292348;0.01914959;0.03973883;0.0293471
133;0.03757268;0.04504662;0.02991585;0.04176487;0.0371657;0.01818614;0.03588082;0.02637391
137;0.03175065;0.03777397;0.02363932;0.03452387;0.03068555;0.01755831;0.03117989;0.0228081
141;0.02575804;0.02962925;0.01685113;0.02681268;0.02384283;0.01712713;0.0259351;0.01888765
145;0.01998075;0.0208395;0.009783694;0.01897869;0.01698557;0.01668534;0.02029645;0.01474918
149;0.0151004;0.0128232;0.004377837;0.01297422;0.01188332;0.01598046;0.01446194;0.01059532
153;0.01276409;0.008546323;0.003653479;0.01091701;0.01021218;0.01497259;0.009874996;0.007542786
157;0.0122962;0.007558761;0.003764975;0.01034263;0.00973429;0.01372329;0.008198262;0.006514153
161;0.01182051;0.007261649;0.003784687;0.009895829;0.009349303;0.01253136;0.007767783;0.006199216
165;0.01132462;0.007084569;0.003783092;0.009464853;0.008975626;0.01148986;0.007448185;0.005940413
169;0.01083925;0.006999215;0.00374967;0.009085252;0.008640401;0.01051518;0.00714084;0.005689769
173;0.01040312;0.006916756;0.00370424;0.008725767;0.008320182;0.009696975;0.006862902;0.005460927
177;0.009994355;0.006843981;0.003659507;0.008370088;0.008003548;0.008955904;0.006596854;0.005242623
181;0.009592973;0.006773454;0.003606601;0.008072908;0.007732432;0.008241148;0.006350175;0.005041078
185;0.009241606;0.006705606;0.003551643;0.007793699;0.007474616;0.007667891;0.006121715;0.004855302
189;0.008932987;0.006638318;0.003497219;0.007516306;0.007218532;0.00716232;0.005903937;0.004678865
193;0.008628258;0.006571339;0.003443354;0.00724094;0.00696437;0.006670936;0.005696715;0.004511561
197;0.008327841;0.00650291;0.003388794;0.006999878;0.006753522;0.006197116;0.005511606;0.004362965
201;0.008032226;0.006434022;0.003333722;0.006788413;0.006546957;0.005785359;0.005327329;0.004215318
205;0.007803531;0.006362833;0.00327928;0.006577906;0.006341392;0.005461197;0.005143977;0.004068723
209;0.007579532;0.006290524;0.003225499;0.006368459;0.006137194;0.005144699;0.004989745;0.003946069
213;0.007357673;0.006216291;0.003172414;0.006160175;0.005973221;0.004837374;0.004842471;0.003829297
217;0.007138156;0.006140224;0.003122507;0.005985255;0.005809914;0.004541083;0.00469578;0.003713154
221;0.006921202;0.006062955;0.00307451;0.005825781;0.005647331;0.004289357;0.004549727;0.003597702
225;0.006749749;0.005983294;0.00302738;0.005667024;0.005485535;0.004079633;0.004404377;0.003483008
229;0.006585692;0.005902999;0.002981156;0.005509044;0.005324599;0.003874801;0.004286128;0.003390117
233;0.006422814;0.005820225;0.002935882;0.005351912;0.005182886;0.003675679;0.004176823;0.003304545
237;0.006261214;0.005736019;0.002891602;0.005195703;0.005060443;0.003483248;0.004068024;0.003219447
241;0.00610099;0.00564833;0.002852321;0.005076101;0.004938667;0.003321406;0.003959776;0.003134862
245;0.005942254;0.005558205;0.002814306;0.004959314;0.004817606;0.003179035;0.003852122;0.003050832
249;0.005794796;0.005465841;0.002777399;0.004843209;0.004697317;0.003039895;0.003745114;0.002967405
